#T(K), Kl_SlackLow(W/mK), Kl_SlackSim(W/mK), Kl_CahillLow(W/mK), Cv(J/molK), S(J/molK), S_Debye(J/molK), H(eV), mpf(µm)
10.0000 0.0001 177.2083 0.0003 0.0054 0.0027 0.0000 -0.0000 960525672360.4823
20.0000 0.0005 88.6041 0.0013 0.0217 0.0109 0.0000 -0.0000 120065709045.0603
30.0000 0.0016 59.0694 0.0029 0.0489 0.0244 0.0001 -0.0000 35575024902.2401
40.0000 0.0038 44.3021 0.0052 0.0869 0.0435 0.0003 -0.0000 15008213630.6325
50.0000 0.0074 35.4417 0.0081 0.1358 0.0679 0.0006 -0.0001 7684205378.8839
60.0000 0.0128 29.5347 0.0117 0.1956 0.0978 0.0010 -0.0001 4446878112.7800
70.0000 0.0203 25.3155 0.0159 0.2662 0.1331 0.0016 -0.0002 2800366391.7215
80.0000 0.0303 22.1510 0.0208 0.3477 0.1739 0.0024 -0.0003 1876026703.8291
90.0000 0.0432 19.6898 0.0263 0.4401 0.2200 0.0035 -0.0004 1317593514.8978
100.0000 0.0593 17.7208 0.0325 0.5433 0.2717 0.0048 -0.0006 960525672.3605
110.0000 0.0789 16.1098 0.0394 0.6574 0.3287 0.0063 -0.0007 721657154.2904
120.0000 0.1024 14.7674 0.0468 0.7824 0.3912 0.0082 -0.0010 555859764.0975
130.0000 0.1302 13.6314 0.0550 0.9182 0.4591 0.0104 -0.0012 437198758.4709
140.0000 0.1626 12.6577 0.0637 1.0649 0.5324 0.0130 -0.0015 350045798.9652
150.0000 0.2000 11.8139 0.0732 1.2224 0.6112 0.0160 -0.0019 284600199.2179
160.0000 0.2427 11.0755 0.0833 1.3909 0.6954 0.0195 -0.0023 234503337.9786
170.0000 0.2910 10.4240 0.0940 1.5701 0.7851 0.0234 -0.0028 195506955.4978
180.0000 0.3452 9.8449 0.1054 1.7603 0.8801 0.0277 -0.0033 164699189.3622
190.0000 0.4055 9.3268 0.1174 1.9613 0.9807 0.0326 -0.0039 140038733.3956
200.0000 0.4723 8.8604 0.1301 2.1732 1.0866 0.0381 -0.0045 120065709.0451
210.0000 0.5455 8.4385 0.1434 2.3960 1.1980 0.0441 -0.0052 103717273.7675
220.0000 0.6254 8.0549 0.1573 2.6296 1.3148 0.0507 -0.0060 90207144.2863
230.0000 0.7120 7.7047 0.1719 2.8741 1.4370 0.0580 -0.0068 78945152.6556
240.0000 0.8051 7.3837 0.1872 3.1294 1.5647 0.0660 -0.0078 69482470.5122
250.0000 0.9048 7.0883 0.2030 3.3956 1.6978 0.0747 -0.0088 61473643.0311
260.0000 1.0108 6.8157 0.2194 3.6692 1.8363 0.0842 -0.0099 54702537.0394
270.0000 1.1229 6.5633 0.2365 3.9453 1.9800 0.0945 -0.0111 48989804.5093
280.0000 1.2409 6.3289 0.2541 4.2283 2.1285 0.1056 -0.0123 44078508.1586
290.0000 1.3643 6.1106 0.2723 4.5175 2.2819 0.1176 -0.0137 39834371.0290
300.0000 1.4930 5.9069 0.2911 4.8121 2.4400 0.1306 -0.0152 36148944.6007
310.0000 1.6263 5.7164 0.3104 5.1114 2.6027 0.1445 -0.0167 32934014.6895
320.0000 1.7641 5.5378 0.3303 5.4148 2.7698 0.1595 -0.0184 30117354.1846
330.0000 1.9057 5.3699 0.3506 5.7215 2.9411 0.1755 -0.0201 27639466.3862
340.0000 2.0508 5.2120 0.3715 6.0307 3.1165 0.1926 -0.0219 25451064.9355
350.0000 2.1990 5.0631 0.3928 6.3417 3.2958 0.2108 -0.0239 23511107.1343
360.0000 2.3498 4.9225 0.4145 6.6540 3.4788 0.2302 -0.0259 21785247.0540
370.0000 2.5028 4.7894 0.4367 6.9669 3.6654 0.2508 -0.0281 20244609.9818
380.0000 2.6576 4.6634 0.4594 7.2797 3.8553 0.2726 -0.0303 18864814.9214
390.0000 2.8137 4.5438 0.4824 7.5919 4.0484 0.2956 -0.0327 17625190.0870
400.0000 2.9709 4.4302 0.5058 7.9030 4.2446 0.3200 -0.0352 16508139.6449
410.0000 3.1287 4.3222 0.5295 8.2125 4.4435 0.3456 -0.0377 15498629.7934
420.0000 3.2869 4.2192 0.5536 8.5198 4.6451 0.3725 -0.0404 14583769.5924
430.0000 3.4451 4.1211 0.5780 8.8247 4.8492 0.4008 -0.0432 13752467.4620
440.0000 3.6029 4.0275 0.6027 9.1267 5.0555 0.4304 -0.0461 12995148.4398
450.0000 3.7603 3.9380 0.6276 9.4256 5.2640 0.4613 -0.0491 12303520.4746
460.0000 3.9168 3.8524 0.6529 9.7209 5.4744 0.4936 -0.0522 11670380.4808
470.0000 4.0723 3.7704 0.6784 10.0125 5.6866 0.5273 -0.0554 11089452.7820
480.0000 4.2266 3.6918 0.7041 10.3001 5.9004 0.5623 -0.0587 10555254.0449
490.0000 4.3795 3.6165 0.7300 10.5835 6.1157 0.5987 -0.0621 10062979.9713
500.0000 4.5308 3.5442 0.7562 10.8625 6.3323 0.6365 -0.0656 9608409.9251
510.0000 4.6804 3.4747 0.7825 11.1370 6.5502 0.6756 -0.0692 9187826.3996
520.0000 4.8282 3.4079 0.8090 11.4068 6.7690 0.7161 -0.0729 8797946.8045
530.0000 4.9740 3.3436 0.8357 11.6720 6.9888 0.7580 -0.0767 8435865.5179
540.0000 5.1178 3.2816 0.8625 11.9323 7.2094 0.8012 -0.0807 8099004.5137
550.0000 5.2594 3.2220 0.8895 12.1878 7.4307 0.8457 -0.0847 7785071.1809
560.0000 5.3989 3.1644 0.9166 12.4384 7.6526 0.8915 -0.0888 7492022.1863
570.0000 5.5361 3.1089 0.9438 12.6840 7.8749 0.9387 -0.0930 7218032.4363
580.0000 5.6709 3.0553 0.9712 12.9247 8.0976 0.9871 -0.0973 6961468.3477
590.0000 5.8035 3.0035 0.9986 13.1605 8.3206 1.0369 -0.1017 6720864.7733
600.0000 5.9336 2.9535 1.0261 13.3914 8.5437 1.0878 -0.1062 6494905.0350
610.0000 6.0614 2.9051 1.0537 13.6174 8.7669 1.1401 -0.1108 6282403.6034
620.0000 6.1868 2.8582 1.0814 13.8386 8.9902 1.1935 -0.1155 6082291.0402
630.0000 6.3098 2.8128 1.1091 14.0549 9.2133 1.2482 -0.1203 5893600.8786
640.0000 6.4304 2.7689 1.1370 14.2666 9.4363 1.3041 -0.1251 5715458.1664
650.0000 6.5486 2.7263 1.1648 14.4735 9.6591 1.3611 -0.1301 5547069.4405
660.0000 6.6644 2.6850 1.1927 14.6758 9.8816 1.4193 -0.1351 5387713.9362
670.0000 6.7779 2.6449 1.2207 14.8735 10.1038 1.4786 -0.1403 5236735.8629
680.0000 6.8890 2.6060 1.2487 15.0668 10.3256 1.5390 -0.1455 5093537.6040
690.0000 6.9978 2.5682 1.2768 15.2557 10.5469 1.6006 -0.1508 4957573.7191
700.0000 7.1043 2.5315 1.3048 15.4402 10.7678 1.6632 -0.1562 4828345.6434
710.0000 7.2085 2.4959 1.3329 15.6205 10.9881 1.7268 -0.1617 4705396.9947
720.0000 7.3105 2.4612 1.3610 15.7966 11.2078 1.7915 -0.1672 4588309.4125
730.0000 7.4104 2.4275 1.3892 15.9687 11.4269 1.8572 -0.1729 4476698.8593
740.0000 7.5080 2.3947 1.4173 16.1367 11.6453 1.9238 -0.1786 4370212.3312
750.0000 7.6035 2.3628 1.4455 16.3009 11.8630 1.9915 -0.1844 4268524.9235
760.0000 7.6970 2.3317 1.4737 16.4612 12.0799 2.0601 -0.1902 4171337.2127
770.0000 7.7884 2.3014 1.5019 16.6178 12.2962 2.1296 -0.1962 4078372.9136
780.0000 7.8777 2.2719 1.5300 16.7707 12.5116 2.2000 -0.2022 3989376.7819
790.0000 7.9651 2.2431 1.5582 16.9200 12.7262 2.2713 -0.2083 3904112.7326
800.0000 8.0506 2.2151 1.5864 17.0659 12.9399 2.3435 -0.2145 3822362.1497
810.0000 8.1342 2.1878 1.6146 17.2083 13.1528 2.4165 -0.2208 3743922.3649
820.0000 8.2159 2.1611 1.6428 17.3474 13.3648 2.4904 -0.2271 3668605.2886
830.0000 8.2958 2.1350 1.6710 17.4833 13.5759 2.5650 -0.2335 3596236.1732
840.0000 8.3739 2.1096 1.6991 17.6160 13.7861 2.6405 -0.2400 3526652.4968
850.0000 8.4503 2.0848 1.7273 17.7457 13.9953 2.7167 -0.2465 3459702.9537
860.0000 8.5250 2.0606 1.7554 17.8723 14.2036 2.7937 -0.2531 3395246.5393
870.0000 8.5980 2.0369 1.7836 17.9960 14.4110 2.8714 -0.2598 3333151.7210
880.0000 8.6694 2.0137 1.8117 18.1168 14.6173 2.9498 -0.2666 3273295.6849
890.0000 8.7393 1.9911 1.8398 18.2349 14.8227 3.0289 -0.2734 3215563.6510
900.0000 8.8076 1.9690 1.8679 18.3502 15.0271 3.1087 -0.2803 3159848.2505
910.0000 8.8743 1.9473 1.8960 18.4629 15.2305 3.1892 -0.2872 3106048.9578
920.0000 8.9397 1.9262 1.9240 18.5730 15.4329 3.2703 -0.2942 3054071.5727
930.0000 9.0035 1.9055 1.9521 18.6807 15.6342 3.3521 -0.3013 3003827.7473
940.0000 9.0660 1.8852 1.9801 18.7858 15.8346 3.4344 -0.3085 2955234.5534
950.0000 9.1271 1.8654 2.0081 18.8886 16.0339 3.5174 -0.3157 2908214.0874
960.0000 9.1869 1.8459 2.0361 18.9891 16.2323 3.6009 -0.3229 2862693.1070
970.0000 9.2453 1.8269 2.0640 19.0873 16.4295 3.6851 -0.3303 2818602.6992
980.0000 9.3025 1.8082 2.0920 19.1833 16.6258 3.7697 -0.3377 2775877.9749
990.0000 9.3585 1.7900 2.1199 19.2772 16.8210 3.8549 -0.3451 2734457.7885
1000.0000 9.4132 1.7721 2.1478 19.3690 17.0152 3.9407 -0.3526 2694284.4797
1010.0000 9.4668 1.7545 2.1757 19.4587 17.2084 4.0269 -0.3602 2655303.6364
1020.0000 9.5192 1.7373 2.2036 19.5465 17.4006 4.1137 -0.3678 2617463.8755
1030.0000 9.5705 1.7205 2.2314 19.6324 17.5917 4.2009 -0.3755 2580716.6412
1040.0000 9.6207 1.7039 2.2592 19.7163 17.7818 4.2886 -0.3832 2545016.0185
1050.0000 9.6699 1.6877 2.2870 19.7985 17.9708 4.3768 -0.3910 2510318.5614
1060.0000 9.7180 1.6718 2.3148 19.8789 18.1589 4.4654 -0.3989 2476583.1332
1070.0000 9.7651 1.6562 2.3426 19.9575 18.3459 4.5545 -0.4068 2443770.7596
1080.0000 9.8112 1.6408 2.3703 20.0344 18.5319 4.6440 -0.4148 2411844.4918
1090.0000 9.8563 1.6258 2.3980 20.1097 18.7169 4.7339 -0.4228 2380769.2804
1100.0000 9.9005 1.6110 2.4257 20.1834 18.9009 4.8242 -0.4309 2350511.8575
1110.0000 9.9438 1.5965 2.4534 20.2556 19.0839 4.9148 -0.4390 2321040.6283
1120.0000 9.9862 1.5822 2.4810 20.3262 19.2659 5.0059 -0.4472 2292325.5693
1130.0000 10.0277 1.5682 2.5087 20.3953 19.4469 5.0973 -0.4554 2264338.1345
1140.0000 10.0684 1.5545 2.5363 20.4630 19.6269 5.1891 -0.4637 2237051.1674
1150.0000 10.1082 1.5409 2.5638 20.5293 19.8059 5.2813 -0.4720 2210438.8200
1160.0000 10.1473 1.5277 2.5914 20.5942 19.9839 5.3737 -0.4804 2184476.4760
1170.0000 10.1855 1.5146 2.6189 20.6578 20.1609 5.4666 -0.4889 2159140.6804
1180.0000 10.2230 1.5018 2.6465 20.7200 20.3370 5.5597 -0.4973 2134409.0731
1190.0000 10.2597 1.4891 2.6740 20.7810 20.5121 5.6531 -0.5059 2110260.3274
1200.0000 10.2957 1.4767 2.7014 20.8408 20.6863 5.7469 -0.5145 2086674.0917
1210.0000 10.3310 1.4645 2.7289 20.8993 20.8595 5.8409 -0.5231 2063630.9360
1220.0000 10.3656 1.4525 2.7563 20.9567 21.0317 5.9352 -0.5318 2041112.3013
1230.0000 10.3995 1.4407 2.7837 21.0129 21.2030 6.0298 -0.5405 2019100.4519
1240.0000 10.4327 1.4291 2.8111 21.0681 21.3734 6.1247 -0.5493 1997578.4318
1250.0000 10.4653 1.4177 2.8385 21.1221 21.5428 6.2198 -0.5581 1976530.0224
1260.0000 10.4973 1.4064 2.8659 21.1750 21.7114 6.3152 -0.5670 1955939.7042
1270.0000 10.5286 1.3953 2.8932 21.2269 21.8790 6.4108 -0.5759 1935792.6197
1280.0000 10.5593 1.3844 2.9205 21.2778 22.0456 6.5067 -0.5848 1916074.5396
1290.0000 10.5895 1.3737 2.9478 21.3278 22.2114 6.6027 -0.5938 1896771.8299
1300.0000 10.6191 1.3631 2.9751 21.3767 22.3763 6.6991 -0.6029 1877871.4223
1310.0000 10.6481 1.3527 3.0023 21.4247 22.5403 6.7956 -0.6120 1859360.7851
1320.0000 10.6765 1.3425 3.0296 21.4718 22.7034 6.8923 -0.6211 1841227.8967
1330.0000 10.7045 1.3324 3.0568 21.5180 22.8656 6.9893 -0.6303 1823461.2201
1340.0000 10.7319 1.3224 3.0840 21.5633 23.0270 7.0864 -0.6395 1806049.6792
1350.0000 10.7588 1.3127 3.1111 21.6078 23.1875 7.1838 -0.6488 1788982.6366
1360.0000 10.7852 1.3030 3.1383 21.6514 23.3471 7.2813 -0.6581 1772249.8717
1370.0000 10.8111 1.2935 3.1654 21.6942 23.5059 7.3790 -0.6674 1755841.5617
1380.0000 10.8366 1.2841 3.1926 21.7362 23.6638 7.4769 -0.6768 1739748.2619
1390.0000 10.8615 1.2749 3.2197 21.7775 23.8209 7.5749 -0.6862 1723960.8884
1400.0000 10.8861 1.2658 3.2468 21.8180 23.9772 7.6731 -0.6957 1708470.7012
1410.0000 10.9102 1.2568 3.2738 21.8577 24.1326 7.7715 -0.7052 1693269.2881
1420.0000 10.9338 1.2479 3.3009 21.8967 24.2872 7.8700 -0.7148 1678348.5498
1430.0000 10.9570 1.2392 3.3279 21.9351 24.4410 7.9687 -0.7244 1663700.6856
1440.0000 10.9798 1.2306 3.3549 21.9727 24.5940 8.0675 -0.7340 1649318.1800
1450.0000 11.0022 1.2221 3.3819 22.0096 24.7462 8.1664 -0.7437 1635193.7899
1460.0000 11.0243 1.2138 3.4089 22.0459 24.8976 8.2655 -0.7534 1621320.5325
1470.0000 11.0459 1.2055 3.4359 22.0816 25.0482 8.3647 -0.7631 1607691.6739
1480.0000 11.0671 1.1974 3.4628 22.1166 25.1980 8.4641 -0.7729 1594300.7180
1490.0000 11.0880 1.1893 3.4898 22.1510 25.3471 8.5635 -0.7827 1581141.3965
1500.0000 11.1085 1.1814 3.5167 22.1848 25.4953 8.6631 -0.7926 1568207.6589
1510.0000 11.1287 1.1736 3.5436 22.2180 25.6429 8.7628 -0.8025 1555493.6634
1520.0000 11.1485 1.1658 3.5705 22.2506 25.7896 8.8625 -0.8124 1542993.7677
1530.0000 11.1680 1.1582 3.5974 22.2827 25.9356 8.9624 -0.8224 1530702.5211
1540.0000 11.1871 1.1507 3.6242 22.3142 26.0809 9.0624 -0.8324 1518614.6562
1550.0000 11.2060 1.1433 3.6511 22.3452 26.2254 9.1625 -0.8425 1506725.0813
1560.0000 11.2245 1.1360 3.6779 22.3757 26.3692 9.2627 -0.8526 1495028.8735
1570.0000 11.2427 1.1287 3.7047 22.4056 26.5123 9.3629 -0.8627 1483521.2713
1580.0000 11.2606 1.1216 3.7315 22.4350 26.6546 9.4633 -0.8728 1472197.6687
1590.0000 11.2782 1.1145 3.7583 22.4640 26.7963 9.5637 -0.8830 1461053.6085
1600.0000 11.2955 1.1076 3.7851 22.4924 26.9372 9.6642 -0.8933 1450084.7765
1610.0000 11.3125 1.1007 3.8118 22.5204 27.0774 9.7648 -0.9035 1439286.9959
1620.0000 11.3292 1.0939 3.8386 22.5480 27.2170 9.8655 -0.9138 1428656.2219
1630.0000 11.3457 1.0872 3.8653 22.5750 27.3558 9.9662 -0.9242 1418188.5366
1640.0000 11.3619 1.0805 3.8920 22.6017 27.4940 10.0670 -0.9345 1407880.1439
1650.0000 11.3779 1.0740 3.9187 22.6279 27.6314 10.1678 -0.9449 1397727.3651
1660.0000 11.3935 1.0675 3.9454 22.6536 27.7682 10.2688 -0.9554 1387726.6341
1670.0000 11.4090 1.0611 3.9721 22.6790 27.9044 10.3697 -0.9658 1377874.4935
1680.0000 11.4242 1.0548 3.9988 22.7040 28.0399 10.4708 -0.9763 1368167.5903
1690.0000 11.4391 1.0486 4.0254 22.7285 28.1747 10.5718 -0.9869 1358602.6719
1700.0000 11.4538 1.0424 4.0521 22.7527 28.3088 10.6730 -0.9974 1349176.5826
1710.0000 11.4683 1.0363 4.0787 22.7764 28.4423 10.7741 -1.0080 1339886.2602
1720.0000 11.4826 1.0303 4.1053 22.7999 28.5752 10.8753 -1.0187 1330728.7320
1730.0000 11.4966 1.0243 4.1319 22.8229 28.7075 10.9766 -1.0293 1321701.1120
1740.0000 11.5104 1.0184 4.1585 22.8456 28.8391 11.0779 -1.0400 1312800.5978
1750.0000 11.5240 1.0126 4.1851 22.8679 28.9701 11.1792 -1.0507 1304024.4674
1760.0000 11.5374 1.0069 4.2117 22.8899 29.1004 11.2806 -1.0615 1295370.0763
1770.0000 11.5506 1.0012 4.2382 22.9115 29.2302 11.3820 -1.0723 1286834.8551
1780.0000 11.5636 0.9956 4.2648 22.9328 29.3593 11.4834 -1.0831 1278416.3065
1790.0000 11.5764 0.9900 4.2913 22.9538 29.4878 11.5849 -1.0940 1270112.0030
1800.0000 11.5890 0.9845 4.3179 22.9745 29.6158 11.6864 -1.1049 1261919.5845
1810.0000 11.6014 0.9791 4.3444 22.9948 29.7431 11.7879 -1.1158 1253836.7558
1820.0000 11.6136 0.9737 4.3709 23.0149 29.8699 11.8894 -1.1267 1245861.2845
1830.0000 11.6257 0.9684 4.3974 23.0346 29.9960 11.9910 -1.1377 1237990.9990
1840.0000 11.6375 0.9631 4.4239 23.0541 30.1216 12.0926 -1.1487 1230223.7861
1850.0000 11.6492 0.9579 4.4503 23.0733 30.2466 12.1942 -1.1597 1222557.5895
1860.0000 11.6607 0.9527 4.4768 23.0921 30.3711 12.2958 -1.1708 1214990.4076
1870.0000 11.6721 0.9476 4.5033 23.1107 30.4949 12.3974 -1.1819 1207520.2915
1880.0000 11.6833 0.9426 4.5297 23.1291 30.6182 12.4990 -1.1930 1200145.3439
1890.0000 11.6943 0.9376 4.5561 23.1471 30.7410 12.6007 -1.2042 1192863.7169
1900.0000 11.7052 0.9327 4.5826 23.1649 30.8632 12.7023 -1.2154 1185673.6106
1910.0000 11.7159 0.9278 4.6090 23.1825 30.9848 12.8040 -1.2266 1178573.2712
1920.0000 11.7264 0.9230 4.6354 23.1998 31.1059 12.9056 -1.2378 1171560.9903
1930.0000 11.7368 0.9182 4.6618 23.2168 31.2265 13.0073 -1.2491 1164635.1025
1940.0000 11.7471 0.9134 4.6882 23.2336 31.3465 13.1090 -1.2604 1157793.9850
1950.0000 11.7572 0.9088 4.7145 23.2502 31.4660 13.2106 -1.2717 1151036.0553
1960.0000 11.7672 0.9041 4.7409 23.2665 31.5850 13.3123 -1.2831 1144359.7708
1970.0000 11.7770 0.8995 4.7673 23.2826 31.7034 13.4140 -1.2945 1137763.6269
1980.0000 11.7867 0.8950 4.7936 23.2985 31.8214 13.5156 -1.3059 1131246.1562
1990.0000 11.7962 0.8905 4.8200 23.3141 31.9388 13.6173 -1.3173 1124805.9274
2000.0000 11.8057 0.8860 4.8463 23.3296 32.0557 13.7190 -1.3288 1118441.5439
2010.0000 11.8150 0.8816 4.8726 23.3448 32.1721 13.8206 -1.3403 1112151.6429
2020.0000 11.8241 0.8773 4.8989 23.3598 32.2880 13.9223 -1.3518 1105934.8946
2030.0000 11.8332 0.8729 4.9252 23.3746 32.4034 14.0239 -1.3633 1099790.0006
2040.0000 11.8421 0.8687 4.9515 23.3892 32.5183 14.1255 -1.3749 1093715.6938
2050.0000 11.8509 0.8644 4.9778 23.4036 32.6327 14.2271 -1.3865 1087710.7368
2060.0000 11.8596 0.8602 5.0041 23.4178 32.7466 14.3287 -1.3981 1081773.9213
2070.0000 11.8681 0.8561 5.0304 23.4318 32.8600 14.4303 -1.4098 1075904.0673
2080.0000 11.8766 0.8520 5.0567 23.4457 32.9730 14.5319 -1.4215 1070100.0220
2090.0000 11.8849 0.8479 5.0829 23.4593 33.0855 14.6335 -1.4332 1064360.6594
2100.0000 11.8932 0.8438 5.1092 23.4728 33.1975 14.7350 -1.4449 1058684.8793
2110.0000 11.9013 0.8398 5.1354 23.4860 33.3090 14.8365 -1.4567 1053071.6066
2120.0000 11.9093 0.8359 5.1617 23.4991 33.4201 14.9380 -1.4685 1047519.7903
2130.0000 11.9172 0.8320 5.1879 23.5121 33.5307 15.0395 -1.4803 1042028.4036
2140.0000 11.9250 0.8281 5.2141 23.5248 33.6409 15.1410 -1.4921 1036596.4423
2150.0000 11.9327 0.8242 5.2403 23.5374 33.7506 15.2425 -1.5040 1031222.9247
2160.0000 11.9403 0.8204 5.2665 23.5499 33.8598 15.3439 -1.5159 1025906.8910
2170.0000 11.9478 0.8166 5.2927 23.5621 33.9686 15.4453 -1.5278 1020647.4024
2180.0000 11.9552 0.8129 5.3189 23.5742 34.0770 15.5467 -1.5397 1015443.5408
2190.0000 11.9625 0.8092 5.3451 23.5862 34.1849 15.6480 -1.5517 1010294.4079
2200.0000 11.9697 0.8055 5.3713 23.5980 34.2924 15.7494 -1.5637 1005199.1251
2210.0000 11.9769 0.8018 5.3975 23.6097 34.3994 15.8507 -1.5757 1000156.8325
2220.0000 11.9839 0.7982 5.4236 23.6212 34.5060 15.9520 -1.5877 995166.6890
2230.0000 11.9909 0.7947 5.4498 23.6325 34.6122 16.0532 -1.5998 990227.8710
2240.0000 11.9977 0.7911 5.4760 23.6437 34.7180 16.1544 -1.6119 985339.5727
2250.0000 12.0045 0.7876 5.5021 23.6548 34.8233 16.2557 -1.6240 980501.0051
2260.0000 12.0112 0.7841 5.5282 23.6657 34.9283 16.3568 -1.6361 975711.3959
2270.0000 12.0178 0.7807 5.5544 23.6765 35.0328 16.4580 -1.6483 970969.9886
2280.0000 12.0243 0.7772 5.5805 23.6872 35.1369 16.5591 -1.6604 966276.0429
2290.0000 12.0308 0.7738 5.6066 23.6977 35.2405 16.6602 -1.6726 961628.8333
2300.0000 12.0371 0.7705 5.6327 23.7082 35.3438 16.7612 -1.6849 957027.6494
2310.0000 12.0434 0.7671 5.6589 23.7184 35.4467 16.8622 -1.6971 952471.7955
2320.0000 12.0496 0.7638 5.6850 23.7286 35.5492 16.9632 -1.7094 947960.5896
2330.0000 12.0558 0.7606 5.7111 23.7386 35.6513 17.0642 -1.7217 943493.3639
2340.0000 12.0618 0.7573 5.7372 23.7485 35.7530 17.1651 -1.7340 939069.4638
2350.0000 12.0678 0.7541 5.7632 23.7583 35.8542 17.2660 -1.7464 934688.2479
2360.0000 12.0737 0.7509 5.7893 23.7680 35.9551 17.3669 -1.7587 930349.0874
2370.0000 12.0796 0.7477 5.8154 23.7775 36.0557 17.4677 -1.7711 926051.3662
2380.0000 12.0854 0.7446 5.8415 23.7870 36.1558 17.5685 -1.7835 921794.4801
2390.0000 12.0911 0.7415 5.8675 23.7963 36.2556 17.6692 -1.7960 917577.8368
2400.0000 12.0967 0.7384 5.8936 23.8055 36.3549 17.7699 -1.8084 913400.8558
2410.0000 12.1023 0.7353 5.9196 23.8146 36.4539 17.8706 -1.8209 909262.9674
2420.0000 12.1078 0.7323 5.9457 23.8236 36.5526 17.9713 -1.8334 905163.6134
2430.0000 12.1133 0.7293 5.9717 23.8325 36.6508 18.0719 -1.8459 901102.2459
2440.0000 12.1186 0.7263 5.9978 23.8413 36.7487 18.1724 -1.8585 897078.3278
2450.0000 12.1240 0.7233 6.0238 23.8500 36.8463 18.2730 -1.8711 893091.3319
2460.0000 12.1292 0.7204 6.0498 23.8586 36.9434 18.3734 -1.8836 889140.7413
2470.0000 12.1344 0.7174 6.0759 23.8671 37.0402 18.4739 -1.8963 885226.0486
2480.0000 12.1396 0.7145 6.1019 23.8754 37.1367 18.5743 -1.9089 881346.7560
2490.0000 12.1446 0.7117 6.1279 23.8837 37.2328 18.6747 -1.9216 877502.3750
2500.0000 12.1497 0.7088 6.1539 23.8919 37.3285 18.7750 -1.9342 873692.4262
2510.0000 12.1546 0.7060 6.1799 23.9000 37.4239 18.8753 -1.9469 869916.4390
2520.0000 12.1595 0.7032 6.2059 23.9081 37.5190 18.9756 -1.9597 866173.9514
2530.0000 12.1644 0.7004 6.2319 23.9160 37.6136 19.0758 -1.9724 862464.5099
2540.0000 12.1692 0.6977 6.2579 23.9238 37.7080 19.1759 -1.9852 858787.6694
2550.0000 12.1739 0.6949 6.2839 23.9316 37.8020 19.2761 -1.9979 855142.9926
2560.0000 12.1786 0.6922 6.3098 23.9392 37.8957 19.3762 -2.0108 851530.0504
2570.0000 12.1833 0.6895 6.3358 23.9468 37.9891 19.4762 -2.0236 847948.4211
2580.0000 12.1878 0.6869 6.3618 23.9543 38.0821 19.5762 -2.0364 844397.6907
2590.0000 12.1924 0.6842 6.3877 23.9617 38.1747 19.6762 -2.0493 840877.4526
2600.0000 12.1969 0.6816 6.4137 23.9690 38.2671 19.7761 -2.0622 837387.3073
2610.0000 12.2013 0.6790 6.4397 23.9763 38.3591 19.8760 -2.0751 833926.8625
2620.0000 12.2057 0.6764 6.4656 23.9834 38.4508 19.9758 -2.0880 830495.7325
2630.0000 12.2100 0.6738 6.4916 23.9905 38.5422 20.0756 -2.1010 827093.5387
