#T(K), Kl_SlackLow(W/mK), Kl_SlackSim(W/mK), Kl_CahillLow(W/mK), Cv(J/molK), S(J/molK), S_Debye(J/molK), H(eV), mpf(µm)
10.0000 0.0002 0.0000 0.0009 0.0035 0.0012 0.0012 -0.0000 0.0004
20.0000 0.0012 0.0000 0.0037 0.0282 0.0094 0.0096 -0.0000 0.0004
30.0000 0.0041 0.0000 0.0082 0.0951 0.0317 0.0326 -0.0001 0.0004
40.0000 0.0096 0.0000 0.0146 0.2253 0.0751 0.0772 -0.0002 0.0004
50.0000 0.0188 0.0000 0.0229 0.4401 0.1467 0.1508 -0.0006 0.0004
60.0000 0.0326 0.0000 0.0329 0.7604 0.2535 0.2605 -0.0012 0.0004
70.0000 0.0517 0.0000 0.0448 1.2076 0.4025 0.4137 -0.0023 0.0004
80.0000 0.0772 0.0000 0.0585 1.8025 0.6008 0.6175 -0.0039 0.0004
90.0000 0.1099 0.0000 0.0741 2.5665 0.8555 0.8792 -0.0063 0.0004
100.0000 0.1507 0.0000 0.0915 3.5206 1.1735 1.2061 -0.0097 0.0004
110.0000 0.2004 0.0000 0.1107 4.6859 1.5620 1.6050 -0.0141 0.0004
120.0000 0.2598 0.0000 0.1317 6.0835 2.0278 2.0831 -0.0200 0.0004
130.0000 0.3295 0.0000 0.1544 7.7347 2.5782 2.6468 -0.0276 0.0004
140.0000 0.4098 0.0000 0.1788 9.6604 3.2201 3.3020 -0.0372 0.0004
150.0000 0.5008 0.0000 0.2049 11.8819 3.9606 4.0537 -0.0490 0.0004
160.0000 0.6023 0.0000 0.2324 14.4202 4.8067 4.9061 -0.0635 0.0004
170.0000 0.7140 0.0000 0.2612 17.1419 5.7623 5.8620 -0.0809 0.0004
180.0000 0.8353 0.0000 0.2913 20.0519 6.8235 6.9231 -0.1014 0.0004
190.0000 0.9651 0.0000 0.3223 23.1702 7.9903 8.0899 -0.1254 0.0004
200.0000 1.1027 0.0000 0.3541 26.4736 9.2620 9.3617 -0.1530 0.0004
210.0000 1.2470 0.0000 0.3865 29.9368 10.6368 10.7365 -0.1845 0.0004
220.0000 1.3968 0.0000 0.4193 33.5333 12.1120 12.2117 -0.2202 0.0004
230.0000 1.5511 0.0000 0.4524 37.2366 13.6840 13.7837 -0.2601 0.0004
240.0000 1.7087 0.0000 0.4855 41.0210 15.3485 15.4482 -0.3045 0.0004
250.0000 1.8687 0.0000 0.5186 44.8619 17.1008 17.2004 -0.3534 0.0004
260.0000 2.0301 0.0000 0.5514 48.7366 18.9357 19.0354 -0.4070 0.0004
270.0000 2.1920 0.0000 0.5839 52.6241 20.8479 20.9476 -0.4654 0.0004
280.0000 2.3537 0.0000 0.6159 56.5057 22.8319 22.9316 -0.5287 0.0004
290.0000 2.5145 0.0000 0.6474 60.3649 24.8822 24.9819 -0.5968 0.0004
300.0000 2.6737 0.0000 0.6783 64.1871 26.9932 27.0929 -0.6698 0.0004
310.0000 2.8308 0.0000 0.7085 67.9600 29.1596 29.2592 -0.7477 0.0004
320.0000 2.9855 0.0000 0.7380 71.6732 31.3760 31.4757 -0.8306 0.0004
330.0000 3.1373 0.0000 0.7667 75.3178 33.6375 33.7372 -0.9183 0.0004
340.0000 3.2860 0.0000 0.7946 78.8869 35.9391 36.0388 -1.0110 0.0004
350.0000 3.4313 0.0000 0.8218 82.3747 38.2764 38.3761 -1.1085 0.0004
360.0000 3.5730 0.0000 0.8481 85.7770 40.6449 40.7445 -1.2108 0.0004
370.0000 3.7110 0.0000 0.8736 89.0906 43.0405 43.1401 -1.3178 0.0004
380.0000 3.8453 0.0000 0.8982 92.3132 45.4593 45.5590 -1.4296 0.0004
390.0000 3.9757 0.0000 0.9221 95.4435 47.8979 47.9976 -1.5460 0.0004
400.0000 4.1022 0.0000 0.9451 98.4808 50.3528 50.4525 -1.6670 0.0004
410.0000 4.2248 0.0000 0.9673 101.4253 52.8209 52.9206 -1.7925 0.0004
420.0000 4.3436 0.0000 0.9888 104.2775 55.2995 55.3991 -1.9225 0.0004
430.0000 4.4586 0.0000 1.0095 107.0383 57.7857 57.8854 -2.0569 0.0004
440.0000 4.5699 0.0000 1.0295 109.7091 60.2772 60.3769 -2.1955 0.0004
450.0000 4.6775 0.0000 1.0488 112.2915 62.7717 62.8714 -2.3385 0.0004
460.0000 4.7814 0.0000 1.0673 114.7873 65.2673 65.3669 -2.4855 0.0004
470.0000 4.8819 0.0000 1.0852 117.1987 67.7619 67.8616 -2.6367 0.0004
480.0000 4.9789 0.0000 1.1025 119.5279 70.2539 70.3536 -2.7920 0.0004
490.0000 5.0726 0.0000 1.1191 121.7771 72.7417 72.8414 -2.9512 0.0004
500.0000 5.1630 0.0000 1.1351 123.9486 75.2240 75.3236 -3.1143 0.0004
510.0000 5.2504 0.0000 1.1505 126.0450 77.6993 77.7989 -3.2812 0.0004
520.0000 5.3346 0.0000 1.1653 128.0685 80.1665 80.2662 -3.4519 0.0004
530.0000 5.4160 0.0000 1.1796 130.0218 82.6246 82.7243 -3.6262 0.0004
540.0000 5.4945 0.0000 1.1934 131.9070 85.0727 85.1724 -3.8042 0.0004
550.0000 5.5703 0.0000 1.2067 133.7267 87.5098 87.6095 -3.9858 0.0004
560.0000 5.6435 0.0000 1.2195 135.4833 89.9353 90.0349 -4.1708 0.0004
570.0000 5.7141 0.0000 1.2319 137.1789 92.3483 92.4480 -4.3593 0.0004
580.0000 5.7823 0.0000 1.2438 138.8158 94.7484 94.8480 -4.5512 0.0004
590.0000 5.8482 0.0000 1.2553 140.3963 97.1349 97.2346 -4.7464 0.0004
600.0000 5.9117 0.0000 1.2663 141.9225 99.5074 99.6071 -4.9448 0.0004
610.0000 5.9731 0.0000 1.2770 143.3964 101.8655 101.9652 -5.1465 0.0004
620.0000 6.0324 0.0000 1.2873 144.8200 104.2088 104.3085 -5.3513 0.0004
630.0000 6.0897 0.0000 1.2972 146.1953 106.5370 106.6367 -5.5592 0.0004
640.0000 6.1451 0.0000 1.3068 147.5242 108.8498 108.9495 -5.7702 0.0004
650.0000 6.1986 0.0000 1.3161 148.8084 111.1471 111.2467 -5.9841 0.0004
660.0000 6.2503 0.0000 1.3251 150.0496 113.4285 113.5282 -6.2010 0.0004
670.0000 6.3002 0.0000 1.3337 151.2496 115.6940 115.7937 -6.4208 0.0004
680.0000 6.3486 0.0000 1.3420 152.4100 117.9434 118.0431 -6.6435 0.0004
690.0000 6.3953 0.0000 1.3501 153.5322 120.1766 120.2763 -6.8689 0.0004
700.0000 6.4405 0.0000 1.3579 154.6178 122.3936 122.4932 -7.0971 0.0004
710.0000 6.4843 0.0000 1.3655 155.6683 124.5942 124.6939 -7.3281 0.0004
720.0000 6.5266 0.0000 1.3727 156.6848 126.7786 126.8783 -7.5617 0.0004
730.0000 6.5676 0.0000 1.3798 157.6689 128.9466 129.0463 -7.7979 0.0004
740.0000 6.6073 0.0000 1.3866 158.6216 131.0983 131.1980 -8.0368 0.0004
750.0000 6.6458 0.0000 1.3932 159.5443 133.2337 133.3334 -8.2782 0.0004
760.0000 6.6830 0.0000 1.3996 160.4380 135.3528 135.4525 -8.5221 0.0004
770.0000 6.7191 0.0000 1.4058 161.3040 137.4558 137.5554 -8.7685 0.0004
780.0000 6.7540 0.0000 1.4118 162.1431 139.5426 139.6422 -9.0173 0.0004
790.0000 6.7879 0.0000 1.4176 162.9565 141.6133 141.7130 -9.2686 0.0004
800.0000 6.8207 0.0000 1.4233 163.7451 143.6681 143.7677 -9.5222 0.0004
810.0000 6.8526 0.0000 1.4287 164.5099 145.7070 145.8066 -9.7782 0.0004
820.0000 6.8835 0.0000 1.4340 165.2517 147.7301 147.8298 -10.0364 0.0004
830.0000 6.9135 0.0000 1.4391 165.9714 149.7375 149.8372 -10.2970 0.0004
840.0000 6.9426 0.0000 1.4441 166.6698 151.7294 151.8291 -10.5598 0.0004
850.0000 6.9708 0.0000 1.4490 167.3477 153.7059 153.8056 -10.8248 0.0004
860.0000 6.9982 0.0000 1.4536 168.0058 155.6671 155.7667 -11.0920 0.0004
870.0000 7.0248 0.0000 1.4582 168.6449 157.6131 157.7127 -11.3614 0.0004
880.0000 7.0507 0.0000 1.4626 169.2656 159.5440 159.6437 -11.6329 0.0004
890.0000 7.0758 0.0000 1.4669 169.8687 161.4601 161.5597 -11.9065 0.0004
900.0000 7.1002 0.0000 1.4711 170.4547 163.3613 163.4610 -12.1821 0.0004
910.0000 7.1239 0.0000 1.4751 171.0242 165.2480 165.3477 -12.4599 0.0004
920.0000 7.1470 0.0000 1.4790 171.5778 167.1201 167.2198 -12.7396 0.0004
930.0000 7.1694 0.0000 1.4829 172.1161 168.9780 169.0777 -13.0214 0.0004
940.0000 7.1912 0.0000 1.4866 172.6397 170.8216 170.9213 -13.3051 0.0004
950.0000 7.2125 0.0000 1.4902 173.1489 172.6512 172.7509 -13.5908 0.0004
960.0000 7.2331 0.0000 1.4937 173.6444 174.4669 174.5666 -13.8784 0.0004
970.0000 7.2532 0.0000 1.4971 174.1266 176.2689 176.3685 -14.1679 0.0004
980.0000 7.2727 0.0000 1.5005 174.5959 178.0572 178.1569 -14.4593 0.0004
990.0000 7.2918 0.0000 1.5037 175.0528 179.8321 179.9318 -14.7525 0.0004
1000.0000 7.3103 0.0000 1.5069 175.4977 181.5937 181.6933 -15.0476 0.0004
1010.0000 7.3283 0.0000 1.5099 175.9310 183.3421 183.4418 -15.3445 0.0004
1020.0000 7.3459 0.0000 1.5129 176.3531 185.0775 185.1772 -15.6433 0.0004
1030.0000 7.3631 0.0000 1.5158 176.7643 186.8000 186.8997 -15.9437 0.0004
1040.0000 7.3797 0.0000 1.5187 177.1651 188.5099 188.6095 -16.2460 0.0004
1050.0000 7.3960 0.0000 1.5214 177.5557 190.2071 190.3068 -16.5500 0.0004
1060.0000 7.4119 0.0000 1.5241 177.9364 191.8919 191.9916 -16.8557 0.0004
1070.0000 7.4273 0.0000 1.5268 178.3077 193.5644 193.6641 -17.1631 0.0004
1080.0000 7.4424 0.0000 1.5293 178.6698 195.2248 195.3245 -17.4723 0.0004
1090.0000 7.4571 0.0000 1.5318 179.0229 196.8732 196.9729 -17.7830 0.0004
1100.0000 7.4715 0.0000 1.5343 179.3674 198.5097 198.6094 -18.0955 0.0004
1110.0000 7.4855 0.0000 1.5366 179.7036 200.1345 200.2341 -18.4095 0.0004
1120.0000 7.4992 0.0000 1.5390 180.0317 201.7476 201.8473 -18.7252 0.0004
1130.0000 7.5125 0.0000 1.5412 180.3519 203.3494 203.4490 -19.0425 0.0004
1140.0000 7.5255 0.0000 1.5434 180.6645 204.9398 205.0394 -19.3614 0.0004
1150.0000 7.5382 0.0000 1.5456 180.9697 206.5190 206.6186 -19.6818 0.0004
1160.0000 7.5506 0.0000 1.5477 181.2678 208.0871 208.1868 -20.0038 0.0004
1170.0000 7.5628 0.0000 1.5498 181.5590 209.6443 209.7440 -20.3274 0.0004
1180.0000 7.5746 0.0000 1.5518 181.8434 211.1907 211.2904 -20.6524 0.0004
1190.0000 7.5862 0.0000 1.5537 182.1213 212.7264 212.8261 -20.9790 0.0004
1200.0000 7.5975 0.0000 1.5556 182.3929 214.2516 214.3513 -21.3071 0.0004
1210.0000 7.6086 0.0000 1.5575 182.6583 215.7664 215.8660 -21.6366 0.0004
1220.0000 7.6194 0.0000 1.5594 182.9177 217.2708 217.3705 -21.9677 0.0004
1230.0000 7.6299 0.0000 1.5611 183.1714 218.7651 218.8647 -22.3001 0.0004
1240.0000 7.6403 0.0000 1.5629 183.4194 220.2492 220.3489 -22.6341 0.0004
1250.0000 7.6504 0.0000 1.5646 183.6620 221.7235 221.8231 -22.9694 0.0004
1260.0000 7.6603 0.0000 1.5663 183.8992 223.1879 223.2875 -23.3062 0.0004
1270.0000 7.6699 0.0000 1.5679 184.1313 224.6425 224.7422 -23.6444 0.0004
1280.0000 7.6794 0.0000 1.5695 184.3584 226.0876 226.1873 -23.9840 0.0004
1290.0000 7.6886 0.0000 1.5711 184.5806 227.5232 227.6229 -24.3249 0.0004
1300.0000 7.6977 0.0000 1.5726 184.7981 228.9494 229.0490 -24.6672 0.0004
1310.0000 7.7066 0.0000 1.5741 185.0109 230.3663 230.4659 -25.0109 0.0004
1320.0000 7.7152 0.0000 1.5756 185.2193 231.7740 231.8737 -25.3559 0.0004
1330.0000 7.7237 0.0000 1.5770 185.4234 233.1727 233.2723 -25.7023 0.0004
1340.0000 7.7321 0.0000 1.5784 185.6231 234.5623 234.6620 -26.0500 0.0004
1350.0000 7.7402 0.0000 1.5798 185.8188 235.9432 236.0429 -26.3990 0.0004
1360.0000 7.7482 0.0000 1.5812 186.0104 237.3153 237.4149 -26.7493 0.0004
1370.0000 7.7560 0.0000 1.5825 186.1982 238.6787 238.7783 -27.1009 0.0004
1380.0000 7.7637 0.0000 1.5838 186.3821 240.0335 240.1332 -27.4537 0.0004
1390.0000 7.7712 0.0000 1.5851 186.5623 241.3799 241.4796 -27.8079 0.0004
1400.0000 7.7785 0.0000 1.5863 186.7389 242.7179 242.8176 -28.1633 0.0004
1410.0000 7.7858 0.0000 1.5875 186.9121 244.0476 244.1473 -28.5200 0.0004
1420.0000 7.7928 0.0000 1.5887 187.0817 245.3692 245.4688 -28.8779 0.0004
1430.0000 7.7997 0.0000 1.5899 187.2481 246.6826 246.7823 -29.2370 0.0004
1440.0000 7.8065 0.0000 1.5910 187.4112 247.9880 248.0877 -29.5973 0.0004
1450.0000 7.8132 0.0000 1.5922 187.5711 249.2856 249.3852 -29.9589 0.0004
1460.0000 7.8197 0.0000 1.5933 187.7280 250.5753 250.6749 -30.3217 0.0004
1470.0000 7.8261 0.0000 1.5943 187.8818 251.8572 251.9569 -30.6856 0.0004
1480.0000 7.8324 0.0000 1.5954 188.0327 253.1315 253.2312 -31.0508 0.0004
1490.0000 7.8386 0.0000 1.5965 188.1808 254.3982 254.4979 -31.4171 0.0004
1500.0000 7.8446 0.0000 1.5975 188.3260 255.6574 255.7571 -31.7846 0.0004
1510.0000 7.8506 0.0000 1.5985 188.4686 256.9093 257.0089 -32.1533 0.0004
1520.0000 7.8564 0.0000 1.5995 188.6084 258.1537 258.2534 -32.5231 0.0004
1530.0000 7.8621 0.0000 1.6004 188.7457 259.3910 259.4906 -32.8940 0.0004
1540.0000 7.8677 0.0000 1.6014 188.8805 260.6210 260.7207 -33.2661 0.0004
1550.0000 7.8733 0.0000 1.6023 189.0128 261.8440 261.9437 -33.6394 0.0004
1560.0000 7.8787 0.0000 1.6032 189.1427 263.0599 263.1596 -34.0137 0.0004
1570.0000 7.8840 0.0000 1.6041 189.2702 264.2689 264.3686 -34.3892 0.0004
1580.0000 7.8892 0.0000 1.6050 189.3955 265.4710 265.5707 -34.7657 0.0004
1590.0000 7.8943 0.0000 1.6059 189.5185 266.6664 266.7660 -35.1434 0.0004
1600.0000 7.8994 0.0000 1.6067 189.6393 267.8549 267.9546 -35.5221 0.0004
1610.0000 7.9043 0.0000 1.6076 189.7580 269.0369 269.1365 -35.9019 0.0004
1620.0000 7.9092 0.0000 1.6084 189.8746 270.2122 270.3119 -36.2828 0.0004
1630.0000 7.9139 0.0000 1.6092 189.9892 271.3810 271.4807 -36.6648 0.0004
1640.0000 7.9186 0.0000 1.6100 190.1017 272.5434 272.6431 -37.0478 0.0004
1650.0000 7.9232 0.0000 1.6107 190.2123 273.6994 273.7990 -37.4319 0.0004
1660.0000 7.9278 0.0000 1.6115 190.3210 274.8490 274.9487 -37.8171 0.0004
1670.0000 7.9322 0.0000 1.6123 190.4279 275.9924 276.0921 -38.2032 0.0004
1680.0000 7.9366 0.0000 1.6130 190.5329 277.1296 277.2293 -38.5904 0.0004
1690.0000 7.9409 0.0000 1.6137 190.6362 278.2607 278.3604 -38.9787 0.0004
1700.0000 7.9451 0.0000 1.6144 190.7377 279.3857 279.4854 -39.3679 0.0004
1710.0000 7.9493 0.0000 1.6151 190.8375 280.5047 280.6043 -39.7582 0.0004
1720.0000 7.9534 0.0000 1.6158 190.9357 281.6177 281.7174 -40.1494 0.0004
1730.0000 7.9574 0.0000 1.6165 191.0322 282.7249 282.8245 -40.5417 0.0004
1740.0000 7.9613 0.0000 1.6172 191.1271 283.8262 283.9259 -40.9350 0.0004
1750.0000 7.9652 0.0000 1.6178 191.2205 284.9218 285.0214 -41.3293 0.0004
1760.0000 7.9690 0.0000 1.6185 191.3123 286.0116 286.1113 -41.7245 0.0004
1770.0000 7.9728 0.0000 1.6191 191.4027 287.0958 287.1954 -42.1207 0.0004
1780.0000 7.9765 0.0000 1.6197 191.4916 288.1744 288.2740 -42.5179 0.0004
1790.0000 7.9802 0.0000 1.6204 191.5791 289.2474 289.3471 -42.9161 0.0004
1800.0000 7.9837 0.0000 1.6210 191.6651 290.3149 290.4146 -43.3152 0.0004
1810.0000 7.9873 0.0000 1.6216 191.7499 291.3770 291.4767 -43.7152 0.0004
1820.0000 7.9907 0.0000 1.6221 191.8332 292.4337 292.5334 -44.1163 0.0004
1830.0000 7.9942 0.0000 1.6227 191.9153 293.4851 293.5848 -44.5182 0.0004
1840.0000 7.9975 0.0000 1.6233 191.9960 294.5312 294.6308 -44.9211 0.0004
1850.0000 8.0008 0.0000 1.6238 192.0755 295.5720 295.6717 -45.3249 0.0004
1860.0000 8.0041 0.0000 1.6244 192.1538 296.6077 296.7074 -45.7297 0.0004
1870.0000 8.0073 0.0000 1.6249 192.2309 297.6382 297.7379 -46.1354 0.0004
1880.0000 8.0105 0.0000 1.6255 192.3068 298.6636 298.7633 -46.5420 0.0004
1890.0000 8.0136 0.0000 1.6260 192.3815 299.6840 299.7837 -46.9495 0.0004
1900.0000 8.0166 0.0000 1.6265 192.4551 300.6994 300.7991 -47.3579 0.0004
1910.0000 8.0197 0.0000 1.6270 192.5276 301.7099 301.8096 -47.7672 0.0004
1920.0000 8.0226 0.0000 1.6275 192.5990 302.7155 302.8151 -48.1774 0.0004
1930.0000 8.0256 0.0000 1.6280 192.6693 303.7162 303.8158 -48.5885 0.0004
1940.0000 8.0285 0.0000 1.6285 192.7385 304.7120 304.8117 -49.0005 0.0004
1950.0000 8.0313 0.0000 1.6290 192.8068 305.7032 305.8028 -49.4133 0.0004
1960.0000 8.0341 0.0000 1.6295 192.8740 306.6896 306.7892 -49.8271 0.0004
1970.0000 8.0369 0.0000 1.6299 192.9402 307.6713 307.7710 -50.2417 0.0004
1980.0000 8.0396 0.0000 1.6304 193.0055 308.6484 308.7480 -50.6572 0.0004
1990.0000 8.0423 0.0000 1.6308 193.0698 309.6208 309.7205 -51.0735 0.0004
2000.0000 8.0449 0.0000 1.6313 193.1332 310.5888 310.6884 -51.4907 0.0004
